# GNUBANDS: Utility for SIESTA to transform bands output into Gnuplot format
#
#                                                  Emilio Artacho, Feb. 1999
#                                                   Alberto Garcia, May 2012
#                                         Nick Papior, April 2013, July 2016
# --------------------------------------------------------------------------
# E_F / orig        =      0.0000    -3.9092
# k_min, k_max      =     0.0000    2.1063
# E_min, E_max      =     -1e30       1e30
# Nbands, Nspin, Nk =     26     1   151
# Using min_band, max_band =      1    26
# Total number of bands =     26
#
#        k            E[eV]
# --------------------------------------------------------------------------

      0.000000    -19.321621  1
      0.017805    -19.319121  1
      0.035609    -19.311321  1
      0.053414    -19.298021  1
      0.071218    -19.279121  1
      0.089023    -19.254321  1
      0.106827    -19.223221  1
      0.124632    -19.185821  1
      0.142436    -19.142021  1
      0.160241    -19.091621  1
      0.178045    -19.034921  1
      0.195850    -18.971621  1
      0.213654    -18.902021  1
      0.231459    -18.825921  1
      0.249263    -18.743621  1
      0.267068    -18.655021  1
      0.284872    -18.560121  1
      0.302677    -18.459221  1
      0.320481    -18.352121  1
      0.338286    -18.239021  1
      0.356090    -18.120021  1
      0.373895    -17.995121  1
      0.391699    -17.864521  1
      0.409504    -17.728121  1
      0.427308    -17.586021  1
      0.445113    -17.438421  1
      0.462917    -17.285421  1
      0.480722    -17.126921  1
      0.498526    -16.963221  1
      0.516331    -16.794221  1
      0.534135    -16.620121  1
      0.551940    -16.440921  1
      0.569744    -16.256821  1
      0.587549    -16.068021  1
      0.605353    -15.874421  1
      0.623158    -15.676421  1
      0.640962    -15.474221  1
      0.658767    -15.267921  1
      0.676571    -15.057921  1
      0.694376    -14.844621  1
      0.712180    -14.628521  1
      0.729985    -14.410121  1
      0.747789    -14.190221  1
      0.765594    -13.969921  1
      0.783398    -13.750521  1
      0.801203    -13.533721  1
      0.819007    -13.322021  1
      0.836812    -13.118621  1
      0.854616    -12.928121  1
      0.872421    -12.756121  1
      0.890225    -12.621321  1
      0.899127    -12.670121  1
      0.908029    -12.733721  1
      0.916931    -12.796021  1
      0.925833    -12.857021  1
      0.934736    -12.916821  1
      0.943638    -12.975321  1
      0.952540    -13.032521  1
      0.961442    -13.088421  1
      0.970344    -13.143021  1
      0.979246    -13.196421  1
      0.988148    -13.248521  1
      0.997050    -13.299221  1
      1.005952    -13.348721  1
      1.014854    -13.396921  1
      1.023756    -13.443921  1
      1.032658    -13.489521  1
      1.041560    -13.533821  1
      1.050462    -13.576821  1
      1.059364    -13.618621  1
      1.068266    -13.659021  1
      1.077168    -13.698121  1
      1.086070    -13.735921  1
      1.094973    -13.772421  1
      1.103875    -13.807621  1
      1.112777    -13.841521  1
      1.121679    -13.874121  1
      1.130581    -13.905321  1
      1.139483    -13.935221  1
      1.148385    -13.963821  1
      1.157287    -13.991121  1
      1.166189    -14.017121  1
      1.175091    -14.041821  1
      1.183993    -14.065121  1
      1.192895    -14.087121  1
      1.201797    -14.107721  1
      1.210699    -14.127121  1
      1.219601    -14.145121  1
      1.228503    -14.161721  1
      1.237405    -14.177121  1
      1.246308    -14.191121  1
      1.255210    -14.203821  1
      1.264112    -14.215121  1
      1.273014    -14.225121  1
      1.281916    -14.233821  1
      1.290818    -14.241221  1
      1.299720    -14.247221  1
      1.308622    -14.251821  1
      1.317524    -14.255221  1
      1.326426    -14.257221  1
      1.335328    -14.257921  1
      1.350747    -14.297521  1
      1.366167    -14.401621  1
      1.381586    -14.543921  1
      1.397005    -14.705821  1
      1.412424    -14.877221  1
      1.427844    -15.052721  1
      1.443263    -15.229421  1
      1.458682    -15.405521  1
      1.474101    -15.580021  1
      1.489521    -15.752221  1
      1.504940    -15.921721  1
      1.520359    -16.088121  1
      1.535779    -16.251321  1
      1.551198    -16.410921  1
      1.566617    -16.567021  1
      1.582036    -16.719421  1
      1.597456    -16.867921  1
      1.612875    -17.012621  1
      1.628294    -17.153421  1
      1.643713    -17.290221  1
      1.659133    -17.422921  1
      1.674552    -17.551521  1
      1.689971    -17.675921  1
      1.705391    -17.796121  1
      1.720810    -17.912121  1
      1.736229    -18.023721  1
      1.751648    -18.131021  1
      1.767068    -18.233921  1
      1.782487    -18.332321  1
      1.797906    -18.426221  1
      1.813325    -18.515621  1
      1.828745    -18.600421  1
      1.844164    -18.680621  1
      1.859583    -18.756121  1
      1.875002    -18.826921  1
      1.890422    -18.893021  1
      1.905841    -18.954421  1
      1.921260    -19.010921  1
      1.936680    -19.062621  1
      1.952099    -19.109521  1
      1.967518    -19.151521  1
      1.982937    -19.188721  1
      1.998357    -19.221021  1
      2.013776    -19.248721  1
      2.029195    -19.271621  1
      2.044614    -19.290021  1
      2.060034    -19.304021  1
      2.075453    -19.313921  1
      2.090872    -19.319721  1
      2.106291    -19.321621  1


      0.000000     -7.486821  1
      0.017805     -7.483221  1
      0.035609     -7.472221  1
      0.053414     -7.454021  1
      0.071218     -7.428421  1
      0.089023     -7.395621  1
      0.106827     -7.355521  1
      0.124632     -7.308221  1
      0.142436     -7.253621  1
      0.160241     -7.191921  1
      0.178045     -7.123021  1
      0.195850     -7.047021  1
      0.213654     -6.963921  1
      0.231459     -6.873821  1
      0.249263     -6.776721  1
      0.267068     -6.672721  1
      0.284872     -6.561821  1
      0.302677     -6.444221  1
      0.320481     -6.319921  1
      0.338286     -6.406321  1
      0.356090     -6.651521  1
      0.373895     -6.896721  1
      0.391699     -7.141321  1
      0.409504     -7.384821  1
      0.427308     -7.626921  1
      0.445113     -7.867021  1
      0.462917     -8.104721  1
      0.480722     -8.339921  1
      0.498526     -8.572121  1
      0.516331     -8.801221  1
      0.534135     -9.026821  1
      0.551940     -9.248821  1
      0.569744     -9.467021  1
      0.587549     -9.681221  1
      0.605353     -9.891221  1
      0.623158    -10.097021  1
      0.640962    -10.298521  1
      0.658767    -10.495421  1
      0.676571    -10.687821  1
      0.694376    -10.875521  1
      0.712180    -11.058421  1
      0.729985    -11.236621  1
      0.747789    -11.409921  1
      0.765594    -11.578321  1
      0.783398    -11.741721  1
      0.801203    -11.900221  1
      0.819007    -12.053621  1
      0.836812    -12.202121  1
      0.854616    -12.345521  1
      0.872421    -12.483821  1
      0.890225    -12.605221  1
      0.899127    -12.560821  1
      0.908029    -12.509121  1
      0.916931    -12.466521  1
      0.925833    -12.433121  1
      0.934736    -12.408821  1
      0.943638    -12.393121  1
      0.952540    -12.385421  1
      0.961442    -12.384821  1
      0.970344    -12.390421  1
      0.979246    -12.401321  1
      0.988148    -12.416721  1
      0.997050    -12.435721  1
      1.005952    -12.457821  1
      1.014854    -12.482121  1
      1.023756    -12.508421  1
      1.032658    -12.536021  1
      1.041560    -12.564721  1
      1.050462    -12.594021  1
      1.059364    -12.623821  1
      1.068266    -12.653721  1
      1.077168    -12.683721  1
      1.086070    -12.713421  1
      1.094973    -12.742821  1
      1.103875    -12.771821  1
      1.112777    -12.800221  1
      1.121679    -12.828021  1
      1.130581    -12.855021  1
      1.139483    -12.881321  1
      1.148385    -12.906621  1
      1.157287    -12.931121  1
      1.166189    -12.954521  1
      1.175091    -12.977021  1
      1.183993    -12.998421  1
      1.192895    -13.018821  1
      1.201797    -13.038021  1
      1.210699    -13.056121  1
      1.219601    -13.073021  1
      1.228503    -13.088821  1
      1.237405    -13.103321  1
      1.246308    -13.116721  1
      1.255210    -13.128821  1
      1.264112    -13.139621  1
      1.273014    -13.149221  1
      1.281916    -13.157621  1
      1.290818    -13.164721  1
      1.299720    -13.170521  1
      1.308622    -13.175021  1
      1.317524    -13.178221  1
      1.326426    -13.180221  1
      1.335328    -13.180821  1
      1.350747    -13.137721  1
      1.366167    -13.023121  1
      1.381586    -12.863421  1
      1.397005    -12.677021  1
      1.412424    -12.474421  1
      1.427844    -12.260721  1
      1.443263    -12.039121  1
      1.458682    -11.811421  1
      1.474101    -11.578621  1
      1.489521    -11.341521  1
      1.504940    -11.100821  1
      1.520359    -10.856721  1
      1.535779    -10.609821  1
      1.551198    -10.360321  1
      1.566617    -10.108421  1
      1.582036     -9.854621  1
      1.597456     -9.599021  1
      1.612875     -9.341821  1
      1.628294     -9.083521  1
      1.643713     -8.824221  1
      1.659133     -8.564321  1
      1.674552     -8.304021  1
      1.689971     -8.043821  1
      1.705391     -7.784121  1
      1.720810     -7.525121  1
      1.736229     -7.267421  1
      1.751648     -7.011321  1
      1.767068     -6.757421  1
      1.782487     -6.506321  1
      1.797906     -6.405321  1
      1.813325     -6.509321  1
      1.828745     -6.608321  1
      1.844164     -6.702221  1
      1.859583     -6.791021  1
      1.875002     -6.874621  1
      1.890422     -6.953021  1
      1.905841     -7.026121  1
      1.921260     -7.093921  1
      1.936680     -7.156421  1
      1.952099     -7.213621  1
      1.967518     -7.265421  1
      1.982937     -7.311821  1
      1.998357     -7.352721  1
      2.013776     -7.388321  1
      2.029195     -7.418421  1
      2.044614     -7.443021  1
      2.060034     -7.462221  1
      2.075453     -7.475921  1
      2.090872     -7.484121  1
      2.106291     -7.486821  1


      0.000000     -3.216821  1
      0.017805     -3.228421  1
      0.035609     -3.264321  1
      0.053414     -3.325821  1
      0.071218     -3.411921  1
      0.089023     -3.520821  1
      0.106827     -3.650621  1
      0.124632     -3.799221  1
      0.142436     -3.964721  1
      0.160241     -4.145021  1
      0.178045     -4.338221  1
      0.195850     -4.542621  1
      0.213654     -4.756421  1
      0.231459     -4.978221  1
      0.249263     -5.206521  1
      0.267068     -5.440121  1
      0.284872     -5.677921  1
      0.302677     -5.918721  1
      0.320481     -6.161821  1
      0.338286     -6.188921  1
      0.356090     -6.051421  1
      0.373895     -5.907621  1
      0.391699     -5.855721  1
      0.409504     -6.056321  1
      0.427308     -6.258721  1
      0.445113     -6.462521  1
      0.462917     -6.667021  1
      0.480722     -6.871721  1
      0.498526     -7.076321  1
      0.516331     -7.280121  1
      0.534135     -7.482821  1
      0.551940     -7.684021  1
      0.569744     -7.883221  1
      0.587549     -8.080221  1
      0.605353     -8.274521  1
      0.623158     -8.465821  1
      0.640962     -8.653621  1
      0.658767     -8.837621  1
      0.676571     -9.017321  1
      0.694376     -9.192221  1
      0.712180     -9.361821  1
      0.729985     -9.525421  1
      0.747789     -9.682321  1
      0.765594     -9.831321  1
      0.783398     -9.971221  1
      0.801203    -10.100321  1
      0.819007    -10.216121  1
      0.836812    -10.315621  1
      0.854616    -10.394421  1
      0.872421    -10.446921  1
      0.890225    -10.466521  1
      0.899127    -10.460521  1
      0.908029    -10.444121  1
      0.916931    -10.416721  1
      0.925833    -10.378421  1
      0.934736    -10.329421  1
      0.943638    -10.270121  1
      0.952540    -10.201421  1
      0.961442    -10.124121  1
      0.970344    -10.039121  1
      0.979246     -9.947421  1
      0.988148     -9.850121  1
      0.997050     -9.747821  1
      1.005952     -9.641421  1
      1.014854     -9.531621  1
      1.023756     -9.419121  1
      1.032658     -9.304321  1
      1.041560     -9.187821  1
      1.050462     -9.070021  1
      1.059364     -8.951321  1
      1.068266     -8.832121  1
      1.077168     -8.712721  1
      1.086070     -8.593421  1
      1.094973     -8.474521  1
      1.103875     -8.356421  1
      1.112777     -8.239321  1
      1.121679     -8.123621  1
      1.130581     -8.009421  1
      1.139483     -7.897021  1
      1.148385     -7.786821  1
      1.157287     -7.679021  1
      1.166189     -7.573921  1
      1.175091     -7.471721  1
      1.183993     -7.372921  1
      1.192895     -7.277621  1
      1.201797     -7.186121  1
      1.210699     -7.098821  1
      1.219601     -7.015921  1
      1.228503     -6.937721  1
      1.237405     -6.864621  1
      1.246308     -6.796721  1
      1.255210     -6.734321  1
      1.264112     -6.677821  1
      1.273014     -6.627321  1
      1.281916     -6.583021  1
      1.290818     -6.545221  1
      1.299720     -6.514021  1
      1.308622     -6.489621  1
      1.317524     -6.472121  1
      1.326426     -6.461521  1
      1.335328     -6.458021  1
      1.350747     -6.455721  1
      1.366167     -6.448821  1
      1.381586     -6.437421  1
      1.397005     -6.421321  1
      1.412424     -6.400821  1
      1.427844     -6.375621  1
      1.443263     -6.346021  1
      1.458682     -6.312021  1
      1.474101     -6.273521  1
      1.489521     -6.230621  1
      1.504940     -6.183421  1
      1.520359     -6.132021  1
      1.535779     -6.076321  1
      1.551198     -6.016621  1
      1.566617     -5.952921  1
      1.582036     -5.885221  1
      1.597456     -5.813721  1
      1.612875     -5.738621  1
      1.628294     -5.659921  1
      1.643713     -5.577821  1
      1.659133     -5.492521  1
      1.674552     -5.404221  1
      1.689971     -5.543221  1
      1.705391     -5.680021  1
      1.720810     -5.812521  1
      1.736229     -5.940421  1
      1.751648     -6.063821  1
      1.767068     -6.182521  1
      1.782487     -6.296321  1
      1.797906     -6.258421  1
      1.813325     -6.014521  1
      1.828745     -5.775121  1
      1.844164     -5.540921  1
      1.859583     -5.312821  1
      1.875002     -5.091521  1
      1.890422     -4.877821  1
      1.905841     -4.672621  1
      1.921260     -4.476921  1
      1.936680     -4.291621  1
      1.952099     -4.117721  1
      1.967518     -3.956221  1
      1.982937     -3.808221  1
      1.998357     -3.674721  1
      2.013776     -3.556521  1
      2.029195     -3.454721  1
      2.044614     -3.370221  1
      2.060034     -3.303521  1
      2.075453     -3.255521  1
      2.090872     -3.226521  1
      2.106291     -3.216821  1


      0.000000     -3.174421  1
      0.017805     -3.182421  1
      0.035609     -3.205121  1
      0.053414     -3.240621  1
      0.071218     -3.288321  1
      0.089023     -3.348321  1
      0.106827     -3.420521  1
      0.124632     -3.504721  1
      0.142436     -3.600621  1
      0.160241     -3.707721  1
      0.178045     -3.825621  1
      0.195850     -3.953721  1
      0.213654     -4.091421  1
      0.231459     -4.238121  1
      0.249263     -4.393221  1
      0.267068     -4.556021  1
      0.284872     -4.725921  1
      0.302677     -4.902221  1
      0.320481     -5.084121  1
      0.338286     -5.271121  1
      0.356090     -5.462521  1
      0.373895     -5.657521  1
      0.391699     -5.757421  1
      0.409504     -5.601021  1
      0.427308     -5.438721  1
      0.445113     -5.270421  1
      0.462917     -5.096521  1
      0.480722     -4.917021  1
      0.498526     -4.732221  1
      0.516331     -4.542421  1
      0.534135     -4.347721  1
      0.551940     -4.148421  1
      0.569744     -3.944821  1
      0.587549     -3.737321  1
      0.605353     -3.526321  1
      0.623158     -3.312021  1
      0.640962     -3.095021  1
      0.658767     -2.875621  1
      0.676571     -2.654621  1
      0.694376     -2.432321  1
      0.712180     -2.209421  1
      0.729985     -1.986621  1
      0.747789     -1.764521  1
      0.765594     -1.544021  1
      0.783398     -1.325921  1
      0.801203     -1.111021  1
      0.819007     -0.900221  1
      0.836812     -0.694421  1
      0.854616     -0.494621  1
      0.872421     -0.301721  1
      0.890225     -0.130821  1
      0.899127     -0.200921  1
      0.908029     -0.288821  1
      0.916931     -0.374921  1
      0.925833     -0.459421  1
      0.934736     -0.542221  1
      0.943638     -0.623321  1
      0.952540     -0.702621  1
      0.961442     -0.780221  1
      0.970344     -0.856121  1
      0.979246     -0.930221  1
      0.988148     -1.002621  1
      0.997050     -1.073221  1
      1.005952     -1.142021  1
      1.014854     -1.209121  1
      1.023756     -1.274421  1
      1.032658     -1.337921  1
      1.041560     -1.399621  1
      1.050462     -1.459621  1
      1.059364     -1.517721  1
      1.068266     -1.574121  1
      1.077168     -1.628621  1
      1.086070     -1.681321  1
      1.094973     -1.732221  1
      1.103875     -1.781321  1
      1.112777     -1.828621  1
      1.121679     -1.874021  1
      1.130581     -1.917621  1
      1.139483     -1.959421  1
      1.148385     -1.999321  1
      1.157287     -2.037421  1
      1.166189     -2.073721  1
      1.175091     -2.108121  1
      1.183993     -2.140721  1
      1.192895     -2.171421  1
      1.201797     -2.200321  1
      1.210699     -2.227321  1
      1.219601     -2.252421  1
      1.228503     -2.275721  1
      1.237405     -2.297221  1
      1.246308     -2.316821  1
      1.255210     -2.334521  1
      1.264112     -2.350321  1
      1.273014     -2.364321  1
      1.281916     -2.376521  1
      1.290818     -2.386721  1
      1.299720     -2.395121  1
      1.308622     -2.401721  1
      1.317524     -2.406321  1
      1.326426     -2.409121  1
      1.335328     -2.410121  1
      1.350747     -2.424921  1
      1.366167     -2.468721  1
      1.381586     -2.539021  1
      1.397005     -2.632521  1
      1.412424     -2.745421  1
      1.427844     -2.874121  1
      1.443263     -3.015121  1
      1.458682     -3.165421  1
      1.474101     -3.322521  1
      1.489521     -3.484321  1
      1.504940     -3.649221  1
      1.520359     -3.815721  1
      1.535779     -3.982821  1
      1.551198     -4.149521  1
      1.566617     -4.315121  1
      1.582036     -4.479021  1
      1.597456     -4.640721  1
      1.612875     -4.799621  1
      1.628294     -4.955521  1
      1.643713     -5.108121  1
      1.659133     -5.257021  1
      1.674552     -5.402121  1
      1.689971     -5.313021  1
      1.705391     -5.219121  1
      1.720810     -5.122921  1
      1.736229     -5.024521  1
      1.751648     -4.924221  1
      1.767068     -4.822421  1
      1.782487     -4.719321  1
      1.797906     -4.615421  1
      1.813325     -4.510921  1
      1.828745     -4.406521  1
      1.844164     -4.302421  1
      1.859583     -4.199221  1
      1.875002     -4.097521  1
      1.890422     -3.997821  1
      1.905841     -3.900621  1
      1.921260     -3.806721  1
      1.936680     -3.716721  1
      1.952099     -3.631221  1
      1.967518     -3.551121  1
      1.982937     -3.476921  1
      1.998357     -3.409521  1
      2.013776     -3.349421  1
      2.029195     -3.297321  1
      2.044614     -3.253821  1
      2.060034     -3.219421  1
