# GNUBANDS: Utility for SIESTA to transform bands output into Gnuplot format
#
#                                                  Emilio Artacho, Feb. 1999
#                                                   Alberto Garcia, May 2012
#                                         Nick Papior, April 2013, July 2016
# --------------------------------------------------------------------------
# Bands for all spins
# E_F / orig        =      0.0000    -3.9084
# k_min, k_max      =     0.0000    2.1063
# E_min, E_max      =     -1e30       1e30
# Nbands, Nspin, Nk =     26     2   151
# Using min_band, max_band =      1    26
# Total number of bands =     26
#
#        k            E[eV]
# --------------------------------------------------------------------------

      0.000000    -19.321840  1
      0.017805    -19.319240  1
      0.035609    -19.311440  1
      0.053414    -19.298240  1
      0.071218    -19.279340  1
      0.089023    -19.254440  1
      0.106827    -19.223340  1
      0.124632    -19.185940  1
      0.142436    -19.142140  1
      0.160241    -19.091840  1
      0.178045    -19.035040  1
      0.195850    -18.971840  1
      0.213654    -18.902140  1
      0.231459    -18.826140  1
      0.249263    -18.743740  1
      0.267068    -18.655140  1
      0.284872    -18.560340  1
      0.302677    -18.459340  1
      0.320481    -18.352340  1
      0.338286    -18.239240  1
      0.356090    -18.120240  1
      0.373895    -17.995340  1
      0.391699    -17.864640  1
      0.409504    -17.728240  1
      0.427308    -17.586240  1
      0.445113    -17.438640  1
      0.462917    -17.285540  1
      0.480722    -17.127140  1
      0.498526    -16.963340  1
      0.516331    -16.794340  1
      0.534135    -16.620240  1
      0.551940    -16.441140  1
      0.569744    -16.257040  1
      0.587549    -16.068140  1
      0.605353    -15.874640  1
      0.623158    -15.676640  1
      0.640962    -15.474340  1
      0.658767    -15.268140  1
      0.676571    -15.058140  1
      0.694376    -14.844840  1
      0.712180    -14.628640  1
      0.729985    -14.410340  1
      0.747789    -14.190440  1
      0.765594    -13.970140  1
      0.783398    -13.750740  1
      0.801203    -13.533940  1
      0.819007    -13.322140  1
      0.836812    -13.118840  1
      0.854616    -12.928240  1
      0.872421    -12.756340  1
      0.890225    -12.621440  1
      0.899127    -12.670240  1
      0.908029    -12.733840  1
      0.916931    -12.796140  1
      0.925833    -12.857240  1
      0.934736    -12.916940  1
      0.943638    -12.975440  1
      0.952540    -13.032640  1
      0.961442    -13.088540  1
      0.970344    -13.143240  1
      0.979246    -13.196540  1
      0.988148    -13.248640  1
      0.997050    -13.299440  1
      1.005952    -13.348940  1
      1.014854    -13.397140  1
      1.023756    -13.444040  1
      1.032658    -13.489640  1
      1.041560    -13.533940  1
      1.050462    -13.577040  1
      1.059364    -13.618740  1
      1.068266    -13.659140  1
      1.077168    -13.698240  1
      1.086070    -13.736040  1
      1.094973    -13.772540  1
      1.103875    -13.807740  1
      1.112777    -13.841640  1
      1.121679    -13.874240  1
      1.130581    -13.905440  1
      1.139483    -13.935340  1
      1.148385    -13.964040  1
      1.157287    -13.991240  1
      1.166189    -14.017240  1
      1.175091    -14.041940  1
      1.183993    -14.065240  1
      1.192895    -14.087240  1
      1.201797    -14.107840  1
      1.210699    -14.127240  1
      1.219601    -14.145240  1
      1.228503    -14.161940  1
      1.237405    -14.177240  1
      1.246308    -14.191240  1
      1.255210    -14.203940  1
      1.264112    -14.215240  1
      1.273014    -14.225240  1
      1.281916    -14.233940  1
      1.290818    -14.241340  1
      1.299720    -14.247340  1
      1.308622    -14.252040  1
      1.317524    -14.255340  1
      1.326426    -14.257340  1
      1.335328    -14.258040  1
      1.350747    -14.297640  1
      1.366167    -14.401740  1
      1.381586    -14.544040  1
      1.397005    -14.706040  1
      1.412424    -14.877440  1
      1.427844    -15.052940  1
      1.443263    -15.229540  1
      1.458682    -15.405640  1
      1.474101    -15.580140  1
      1.489521    -15.752440  1
      1.504940    -15.921940  1
      1.520359    -16.088340  1
      1.535779    -16.251440  1
      1.551198    -16.411140  1
      1.566617    -16.567240  1
      1.582036    -16.719540  1
      1.597456    -16.868140  1
      1.612875    -17.012840  1
      1.628294    -17.153640  1
      1.643713    -17.290340  1
      1.659133    -17.423040  1
      1.674552    -17.551640  1
      1.689971    -17.676140  1
      1.705391    -17.796340  1
      1.720810    -17.912240  1
      1.736229    -18.023940  1
      1.751648    -18.131240  1
      1.767068    -18.234040  1
      1.782487    -18.332440  1
      1.797906    -18.426440  1
      1.813325    -18.515740  1
      1.828745    -18.600540  1
      1.844164    -18.680740  1
      1.859583    -18.756240  1
      1.875002    -18.827140  1
      1.890422    -18.893240  1
      1.905841    -18.954540  1
      1.921260    -19.011040  1
      1.936680    -19.062840  1
      1.952099    -19.109640  1
      1.967518    -19.151740  1
      1.982937    -19.188840  1
      1.998357    -19.221240  1
      2.013776    -19.248840  1
      2.029195    -19.271740  1
      2.044614    -19.290140  1
      2.060034    -19.304240  1
      2.075453    -19.314040  1
      2.090872    -19.319940  1
      2.106291    -19.321840  1


      0.000000     -7.486440  1
      0.017805     -7.482740  1
      0.035609     -7.471840  1
      0.053414     -7.453540  1
      0.071218     -7.428040  1
      0.089023     -7.395140  1
      0.106827     -7.355140  1
      0.124632     -7.307740  1
      0.142436     -7.253240  1
      0.160241     -7.191440  1
      0.178045     -7.122640  1
      0.195850     -7.046540  1
      0.213654     -6.963540  1
      0.231459     -6.873340  1
      0.249263     -6.776240  1
      0.267068     -6.672240  1
      0.284872     -6.561440  1
      0.302677     -6.443740  1
      0.320481     -6.319440  1
      0.338286     -6.406640  1
      0.356090     -6.651840  1
      0.373895     -6.897040  1
      0.391699     -7.141640  1
      0.409504     -7.385140  1
      0.427308     -7.627140  1
      0.445113     -7.867240  1
      0.462917     -8.105040  1
      0.480722     -8.340140  1
      0.498526     -8.572440  1
      0.516331     -8.801440  1
      0.534135     -9.027040  1
      0.551940     -9.249040  1
      0.569744     -9.467240  1
      0.587549     -9.681440  1
      0.605353     -9.891540  1
      0.623158    -10.097340  1
      0.640962    -10.298740  1
      0.658767    -10.495640  1
      0.676571    -10.688040  1
      0.694376    -10.875740  1
      0.712180    -11.058640  1
      0.729985    -11.236840  1
      0.747789    -11.410040  1
      0.765594    -11.578440  1
      0.783398    -11.741940  1
      0.801203    -11.900340  1
      0.819007    -12.053840  1
      0.836812    -12.202340  1
      0.854616    -12.345640  1
      0.872421    -12.483940  1
      0.890225    -12.605440  1
      0.899127    -12.561040  1
      0.908029    -12.509240  1
      0.916931    -12.466640  1
      0.925833    -12.433340  1
      0.934736    -12.409040  1
      0.943638    -12.393340  1
      0.952540    -12.385640  1
      0.961442    -12.385040  1
      0.970344    -12.390640  1
      0.979246    -12.401540  1
      0.988148    -12.416940  1
      0.997050    -12.436040  1
      1.005952    -12.458040  1
      1.014854    -12.482440  1
      1.023756    -12.508640  1
      1.032658    -12.536340  1
      1.041560    -12.564940  1
      1.050462    -12.594340  1
      1.059364    -12.624040  1
      1.068266    -12.654040  1
      1.077168    -12.683940  1
      1.086070    -12.713740  1
      1.094973    -12.743140  1
      1.103875    -12.772140  1
      1.112777    -12.800540  1
      1.121679    -12.828340  1
      1.130581    -12.855340  1
      1.139483    -12.881540  1
      1.148385    -12.906940  1
      1.157287    -12.931340  1
      1.166189    -12.954840  1
      1.175091    -12.977340  1
      1.183993    -12.998740  1
      1.192895    -13.019140  1
      1.201797    -13.038340  1
      1.210699    -13.056440  1
      1.219601    -13.073340  1
      1.228503    -13.089140  1
      1.237405    -13.103640  1
      1.246308    -13.117040  1
      1.255210    -13.129140  1
      1.264112    -13.139940  1
      1.273014    -13.149540  1
      1.281916    -13.157940  1
      1.290818    -13.165040  1
      1.299720    -13.170840  1
      1.308622    -13.175340  1
      1.317524    -13.178540  1
      1.326426    -13.180440  1
      1.335328    -13.181140  1
      1.350747    -13.138040  1
      1.366167    -13.023440  1
      1.381586    -12.863640  1
      1.397005    -12.677340  1
      1.412424    -12.474640  1
      1.427844    -12.261040  1
      1.443263    -12.039440  1
      1.458682    -11.811640  1
      1.474101    -11.578840  1
      1.489521    -11.341840  1
      1.504940    -11.101040  1
      1.520359    -10.857040  1
      1.535779    -10.610140  1
      1.551198    -10.360540  1
      1.566617    -10.108740  1
      1.582036     -9.854840  1
      1.597456     -9.599240  1
      1.612875     -9.342140  1
      1.628294     -9.083740  1
      1.643713     -8.824540  1
      1.659133     -8.564540  1
      1.674552     -8.304340  1
      1.689971     -8.044140  1
      1.705391     -7.784440  1
      1.720810     -7.525440  1
      1.736229     -7.267740  1
      1.751648     -7.011640  1
      1.767068     -6.757840  1
      1.782487     -6.506640  1
      1.797906     -6.404840  1
      1.813325     -6.508840  1
      1.828745     -6.607840  1
      1.844164     -6.701840  1
      1.859583     -6.790540  1
      1.875002     -6.874240  1
      1.890422     -6.952540  1
      1.905841     -7.025740  1
      1.921260     -7.093540  1
      1.936680     -7.156040  1
      1.952099     -7.213240  1
      1.967518     -7.264940  1
      1.982937     -7.311340  1
      1.998357     -7.352340  1
      2.013776     -7.387840  1
      2.029195     -7.417940  1
      2.044614     -7.442640  1
      2.060034     -7.461740  1
      2.075453     -7.475440  1
      2.090872     -7.483640  1
      2.106291     -7.486440  1


      0.000000     -3.217240  1
      0.017805     -3.228840  1
      0.035609     -3.264840  1
      0.053414     -3.326240  1
      0.071218     -3.412340  1
      0.089023     -3.521340  1
      0.106827     -3.651040  1
      0.124632     -3.799740  1
      0.142436     -3.965140  1
      0.160241     -4.145440  1
      0.178045     -4.338640  1
      0.195850     -4.543040  1
      0.213654     -4.756840  1
      0.231459     -4.978640  1
      0.249263     -5.206940  1
      0.267068     -5.440540  1
      0.284872     -5.678240  1
      0.302677     -5.919140  1
      0.320481     -6.162240  1
      0.338286     -6.188440  1
      0.356090     -6.050940  1
      0.373895     -5.907140  1
      0.391699     -5.856140  1
      0.409504     -6.056740  1
      0.427308     -6.259140  1
      0.445113     -6.462940  1
      0.462917     -6.667440  1
      0.480722     -6.872140  1
      0.498526     -7.076740  1
      0.516331     -7.280540  1
      0.534135     -7.483240  1
      0.551940     -7.684440  1
      0.569744     -7.883640  1
      0.587549     -8.080640  1
      0.605353     -8.274940  1
      0.623158     -8.466240  1
      0.640962     -8.654040  1
      0.658767     -8.838040  1
      0.676571     -9.017740  1
      0.694376     -9.192640  1
      0.712180     -9.362240  1
      0.729985     -9.525840  1
      0.747789     -9.682740  1
      0.765594     -9.831740  1
      0.783398     -9.971640  1
      0.801203    -10.100740  1
      0.819007    -10.216540  1
      0.836812    -10.316040  1
      0.854616    -10.394840  1
      0.872421    -10.447340  1
      0.890225    -10.467040  1
      0.899127    -10.461040  1
      0.908029    -10.444540  1
      0.916931    -10.417140  1
      0.925833    -10.378840  1
      0.934736    -10.329840  1
      0.943638    -10.270640  1
      0.952540    -10.201840  1
      0.961442    -10.124540  1
      0.970344    -10.039540  1
      0.979246     -9.947840  1
      0.988148     -9.850440  1
      0.997050     -9.748240  1
      1.005952     -9.641840  1
      1.014854     -9.532040  1
      1.023756     -9.419540  1
      1.032658     -9.304740  1
      1.041560     -9.188240  1
      1.050462     -9.070440  1
      1.059364     -8.951740  1
      1.068266     -8.832440  1
      1.077168     -8.713040  1
      1.086070     -8.593740  1
      1.094973     -8.474940  1
      1.103875     -8.356840  1
      1.112777     -8.239740  1
      1.121679     -8.123940  1
      1.130581     -8.009740  1
      1.139483     -7.897440  1
      1.148385     -7.787240  1
      1.157287     -7.679340  1
      1.166189     -7.574240  1
      1.175091     -7.472140  1
      1.183993     -7.373340  1
      1.192895     -7.277940  1
      1.201797     -7.186540  1
      1.210699     -7.099240  1
      1.219601     -7.016340  1
      1.228503     -6.938140  1
      1.237405     -6.865040  1
      1.246308     -6.797140  1
      1.255210     -6.734740  1
      1.264112     -6.678240  1
      1.273014     -6.627740  1
      1.281916     -6.583440  1
      1.290818     -6.545640  1
      1.299720     -6.514440  1
      1.308622     -6.490040  1
      1.317524     -6.472540  1
      1.326426     -6.461940  1
      1.335328     -6.458440  1
      1.350747     -6.456140  1
      1.366167     -6.449240  1
      1.381586     -6.437840  1
      1.397005     -6.421740  1
      1.412424     -6.401240  1
      1.427844     -6.376040  1
      1.443263     -6.346440  1
      1.458682     -6.312440  1
      1.474101     -6.273940  1
      1.489521     -6.231040  1
      1.504940     -6.183840  1
      1.520359     -6.132440  1
      1.535779     -6.076740  1
      1.551198     -6.017040  1
      1.566617     -5.953340  1
      1.582036     -5.885640  1
      1.597456     -5.814140  1
      1.612875     -5.739040  1
      1.628294     -5.660340  1
      1.643713     -5.578340  1
      1.659133     -5.493040  1
      1.674552     -5.404640  1
      1.689971     -5.542640  1
      1.705391     -5.679540  1
      1.720810     -5.812040  1
      1.736229     -5.939940  1
      1.751648     -6.063340  1
      1.767068     -6.182040  1
      1.782487     -6.295940  1
      1.797906     -6.258840  1
      1.813325     -6.014840  1
      1.828745     -5.775440  1
      1.844164     -5.541340  1
      1.859583     -5.313240  1
      1.875002     -5.091940  1
      1.890422     -4.878240  1
      1.905841     -4.673040  1
      1.921260     -4.477340  1
      1.936680     -4.292040  1
      1.952099     -4.118140  1
      1.967518     -3.956740  1
      1.982937     -3.808740  1
      1.998357     -3.675140  1
      2.013776     -3.557040  1
      2.029195     -3.455240  1
      2.044614     -3.370640  1
      2.060034     -3.304040  1
      2.075453     -3.255940  1
      2.090872     -3.226940  1
      2.106291     -3.217240  1


      0.000000     -3.174840  1
      0.017805     -3.182940  1
      0.035609     -3.205640  1
      0.053414     -3.241140  1
      0.071218     -3.288840  1
      0.089023     -3.348840  1
      0.106827     -3.421040  1
      0.124632     -3.505240  1
      0.142436     -3.601140  1
      0.160241     -3.708240  1
      0.178045     -3.826140  1
      0.195850     -3.954140  1
      0.213654     -4.091840  1
      0.231459     -4.238540  1
      0.249263     -4.393640  1
      0.267068     -4.556540  1
      0.284872     -4.726340  1
      0.302677     -4.902640  1
      0.320481     -5.084640  1
      0.338286     -5.271540  1
      0.356090     -5.462940  1
      0.373895     -5.657940  1
      0.391699     -5.756940  1
      0.409504     -5.600540  1
      0.427308     -5.438140  1
      0.445113     -5.269940  1
      0.462917     -5.095940  1
      0.480722     -4.916540  1
      0.498526     -4.731740  1
      0.516331     -4.541840  1
      0.534135     -4.347140  1
      0.551940     -4.147840  1
      0.569744     -3.944240  1
      0.587549     -3.736740  1
      0.605353     -3.525640  1
      0.623158     -3.311440  1
      0.640962     -3.094340  1
      0.658767     -2.875040  1
      0.676571     -2.653940  1
      0.694376     -2.431640  1
      0.712180     -2.208740  1
      0.729985     -1.985840  1
      0.747789     -1.763840  1
      0.765594     -1.543340  1
      0.783398     -1.325240  1
      0.801203     -1.110240  1
      0.819007     -0.899440  1
      0.836812     -0.693640  1
      0.854616     -0.493840  1
      0.872421     -0.300940  1
      0.890225     -0.130040  1
      0.899127     -0.200140  1
      0.908029     -0.287940  1
      0.916931     -0.374140  1
      0.925833     -0.458640  1
      0.934736     -0.541440  1
      0.943638     -0.622540  1
      0.952540     -0.701840  1
      0.961442     -0.779440  1
      0.970344     -0.855340  1
      0.979246     -0.929440  1
      0.988148     -1.001840  1
      0.997050     -1.072440  1
      1.005952     -1.141240  1
      1.014854     -1.208340  1
      1.023756     -1.273640  1
      1.032658     -1.337140  1
      1.041560     -1.398940  1
      1.050462     -1.458840  1
      1.059364     -1.516940  1
      1.068266     -1.573340  1
      1.077168     -1.627840  1
      1.086070     -1.680540  1
      1.094973     -1.731440  1
      1.103875     -1.780540  1
      1.112777     -1.827840  1
      1.121679     -1.873240  1
      1.130581     -1.916840  1
      1.139483     -1.958640  1
      1.148385     -1.998640  1
      1.157287     -2.036740  1
      1.166189     -2.072940  1
      1.175091     -2.107340  1
      1.183993     -2.139940  1
      1.192895     -2.170640  1
      1.201797     -2.199540  1
      1.210699     -2.226540  1
      1.219601     -2.251740  1
      1.228503     -2.275040  1
      1.237405     -2.296440  1
      1.246308     -2.316040  1
      1.255210     -2.333740  1
      1.264112     -2.349640  1
      1.273014     -2.363640  1
      1.281916     -2.375740  1
      1.290818     -2.386040  1
      1.299720     -2.394440  1
      1.308622     -2.400940  1
      1.317524     -2.405640  1
      1.326426     -2.408440  1
      1.335328     -2.409340  1
      1.350747     -2.424240  1
      1.366167     -2.467940  1
      1.381586     -2.538240  1
      1.397005     -2.631840  1
      1.412424     -2.744740  1
      1.427844     -2.873440  1
      1.443263     -3.014440  1
      1.458682     -3.164740  1
      1.474101     -3.321840  1
      1.489521     -3.483740  1
      1.504940     -3.648540  1
      1.520359     -3.815140  1
      1.535779     -3.982240  1
      1.551198     -4.148940  1
      1.566617     -4.314640  1
      1.582036     -4.478440  1
      1.597456     -4.640140  1
      1.612875     -4.799140  1
      1.628294     -4.955040  1
      1.643713     -5.107540  1
      1.659133     -5.256540  1
      1.674552     -5.401640  1
      1.689971     -5.313440  1
      1.705391     -5.219540  1
      1.720810     -5.123340  1
      1.736229     -5.024940  1
      1.751648     -4.924640  1
      1.767068     -4.822840  1
      1.782487     -4.719740  1
      1.797906     -4.615840  1
      1.813325     -4.511440  1
      1.828745     -4.406940  1
      1.844164     -4.302840  1
      1.859583     -4.199740  1
      1.875002     -4.097940  1
      1.890422     -3.998240  1
      1.905841     -3.901140  1
      1.921260     -3.807140  1
      1.936680     -3.717140  1
      1.952099     -3.631740  1
      1.967518     -3.551540  1
      1.982937     -3.477440  1
      1.998357     -3.409940  1
      2.013776     -3.349840  1
      2.029195     -3.297740  1
      2.044614     -3.254240  1
